# Wilkinson Microwave Anisotropy Probe (WMAP) 9-year data release.
# WMAP 9-Year Combined Power Spectrum, version 5.0 (December 2012)
#
# References: - WMAP Explanatory Supplement: http://lambda.gsfc.nasa.gov/
#             - Bennett, et al. (2012)
#             - Hinshaw, et al. (2012)
#
# Column 1 = multipole moment l
# Column 2 = TE power spectrum, units = uK^2, =  l(l+1)/2pi * C_l.
# Column 3 = 'Error' derived from diagonal terms of Fisher matrix, units = uK^2.
#             Included only as an estimate of their magnitude.  The
#             multipole moments are slightly coupled, so a correct
#             treatment of errors requires use of the entire Fisher matrix.
# Column 4 = portion of column3 error attributed to measurement errors,
#             sqrt[(Nl_tt * Cl_ee + Nl_ee * Cl_tt + N_tt * N_ee) / ((2l+1) fsky_te)],
#             in "2SN + NN" form, units = uK^2.
# Column 5 = portion of column3 error attributed to cosmic variance, 
#             sqrt[(Cl_ee * Cl_tt + Cl_te^2) / ((2l+1) fsky_te)],
#             assuming the best-fit LCDM model
           2         2.4439         5.7974         2.2831         5.3290
           3        -4.2363         6.0439         2.5031         5.5012
           4        -1.8376         5.5737         2.6640         4.8958
           5         4.8570         4.8750         2.8037         3.9881
           6         4.9840         4.2253         2.9362         3.0384
           7         1.0908         3.7745         3.0675         2.1993
           8        -3.5219         3.5591         3.1994         1.5593
           9         1.8458         3.5267         3.3327         1.1533
          10         5.7796         3.5949         3.4680         0.9466
          11        -1.2153         3.7020         3.6043         0.8446
          12        -0.2320         3.8223         3.7439         0.7699
          13        -0.4448         3.9455         3.8835         0.6963
          14        -0.9896         4.0735         4.0236         0.6353
          15         6.8225         4.2052         4.1621         0.5999
          16         3.6545         4.3440         4.3034         0.5923
          17        -2.0695         4.4881         4.4478         0.6000
          18        -1.4255         4.6325         4.5923         0.6084
          19         5.5585         4.7792         4.7396         0.6139
          20         3.1762         4.9242         4.8852         0.6183
          21        -4.0745         5.0706         5.0316         0.6276
          22        -1.6736         5.2188         5.1786         0.6466
          23        -3.6245         5.3676         5.3252         0.6736
          24        -7.6487         5.5179         5.4725         0.7064
          25        10.2823         5.6698         5.6210         0.7428
          26         3.3073         5.8219         5.7692         0.7816
          27         3.4579         5.9753         5.9185         0.8219
          28        -5.4831         6.1296         6.0687         0.8625
          29        11.7132         6.2843         6.2189         0.9038
          30         5.2956         6.4403         6.3706         0.9450
          31        -4.9441         6.5957         6.5217         0.9856
          32        -0.8978         6.7529         6.6746         1.0254
          33         4.8409         6.9104         6.8280         1.0642
          34         3.1704         7.0684         6.9817         1.1037
          35         3.5353         7.2284         7.1372         1.1443
          36        -6.1450         7.3880         7.2921         1.1865
          37       -19.4164         7.5490         7.4481         1.2297
          38        12.8816         7.7112         7.6053         1.2734
          39        -3.6843         7.8749         7.7639         1.3177
          40         5.7125         8.0394         7.9230         1.3631
          41        14.9660         8.2047         8.0827         1.4097
          42        13.0115         8.3709         8.2431         1.4575
          43        -6.3757         8.5380         8.4041         1.5059
          44         5.1732         8.7058         8.5658         1.5548
          45       -12.2977         8.8749         8.7288         1.6036
          46         5.7748         9.0451         8.8928         1.6527
          47        12.5171         9.2164         9.0579         1.7020
          48       -10.0226         9.3887         9.2238         1.7521
          49        -8.2403         9.5623         9.3908         1.8033
          50         1.4094         9.7373         9.5588         1.8557
          51         7.8127         9.9135         9.7279         1.9094
          52       -26.1468        10.0914         9.8985         1.9641
          53        -2.3161        10.2702        10.0697         2.0196
          54        -6.5101        10.4502        10.2420         2.0757
          55        10.6117        10.6309        10.4148         2.1324
          56        -4.5970        10.8129        10.5889         2.1897
          57        -0.5114        10.9968        10.7646         2.2477
          58         5.7085        11.1820        10.9416         2.3065
          59        -0.1854        11.3691        11.1201         2.3662
          60         0.8135        11.5570        11.2993         2.4266
          61        -0.0638        11.7466        11.4801         2.4879
          62        -5.0026        11.9375        11.6619         2.5499
          63        13.1551        12.1296        11.8448         2.6127
          64        -9.9313        12.3232        12.0291         2.6762
          65        -8.5335        12.5185        12.2148         2.7406
          66         9.2134        12.7156        12.4022         2.8057
          67       -10.0302        12.9142        12.5909         2.8714
          68         1.0558        13.1143        12.7810         2.9378
          69       -10.6525        13.3157        12.9723         3.0046
          70        -5.4654        13.5183        13.1647         3.0718
          71       -34.4484        13.7221        13.3581         3.1394
          72        -5.4251        13.9275        13.5531         3.2077
          73       -14.5644        14.1348        13.7498         3.2765
          74         5.5116        14.3442        13.9485         3.3459
          75        -1.9311        14.5558        14.1492         3.4160
          76        -6.4880        14.7690        14.3516         3.4866
          77        13.8824        14.9838        14.5554         3.5575
          78       -19.1158        15.2001        14.7606         3.6287
          79        -7.7727        15.4177        14.9671         3.7002
          80       -42.6486        15.6368        15.1750         3.7719
          81        10.6427        15.8577        15.3847         3.8440
          82        -6.1752        16.0802        15.5960         3.9162
          83         7.6399        16.3045        15.8090         3.9886
          84        -5.9267        16.5302        16.0236         4.0612
          85       -21.4087        16.7574        16.2396         4.1337
          86         3.2669        16.9866        16.4575         4.2063
          87       -29.2322        17.2170        16.6768         4.2789
          88       -18.6103        17.4487        16.8975         4.3513
          89       -38.5676        17.6820        17.1198         4.4235
          90        -2.3543        17.9167        17.3435         4.4955
          91       -34.1272        18.1527        17.5687         4.5673
          92       -28.9883        18.3904        17.7958         4.6389
          93         3.2661        18.6295        18.0242         4.7101
          94        -9.4203        18.8700        18.2542         4.7810
          95       -17.5471        19.1120        18.4860         4.8516
          96       -34.2125        19.3554        18.7192         4.9217
          97       -14.4016        19.6005        18.9543         4.9914
          98         9.1004        19.8471        19.1911         5.0606
          99       -43.3648        20.0950        19.4294         5.1292
         100       -15.8702        20.3447        19.6696         5.1973
         101       -34.0800        20.5957        19.9114         5.2648
         102       -47.0902        20.8479        20.1547         5.3314
         103       -22.3104        21.1018        20.3999         5.3974
         104       -16.7831        21.3570        20.6467         5.4624
         105        -9.5426        21.6136        20.8951         5.5268
         106       -28.3808        21.8715        21.1450         5.5903
         107       -62.7755        22.1306        21.3966         5.6526
         108       -60.7255        22.3912        21.6498         5.7143
         109        -6.1065        22.6530        21.9046         5.7747
         110       -10.3503        22.9161        22.1611         5.8341
         111       -17.2115        23.1802        22.4187         5.8923
         112         0.8499        23.4454        22.6780         5.9493
         113       -20.8679        23.7122        22.9391         6.0053
         114       -36.9446        23.9795        23.2012         6.0598
         115         9.9206        24.2485        23.4652         6.1131
         116       -55.5233        24.5181        23.7303         6.1649
         117      -121.3256        24.7889        23.9970         6.2154
         118       -79.3034        25.0609        24.2653         6.2646
         119       -67.7715        25.3336        24.5346         6.3122
         120       -74.5743        25.6074        24.8055         6.3582
         121       -39.2695        25.8821        25.0776         6.4028
         122       -11.9761        26.1576        25.3510         6.4457
         123       -46.4677        26.4340        25.6257         6.4869
         124       -47.0459        26.7115        25.9019         6.5265
         125       -19.2547        26.9896        26.1792         6.5643
         126       -36.1226        27.2686        26.4577         6.6006
         127        26.1237        27.5484        26.7375         6.6348
         128      -105.8104        27.8289        27.0184         6.6674
         129       -11.3767        28.1100        27.3003         6.6980
         130       -53.4459        28.3918        27.5835         6.7266
         131       -39.0493        28.6743        27.8677         6.7534
         132       -11.9720        28.9576        28.1531         6.7783
         133       -50.5735        29.2413        28.4393         6.8013
         134       -31.8539        29.5257        28.7267         6.8222
         135       -54.4991        29.8110        29.0154         6.8411
         136      -109.3448        30.0963        29.3046         6.8579
         137       -38.7816        30.3823        29.5948         6.8726
         138       -54.8713        30.6689        29.8860         6.8854
         139        22.9990        30.9557        30.1778         6.8960
         140       -25.6718        31.2433        30.4708         6.9045
         141      -129.0457        31.5310        30.7644         6.9107
         142       -21.0543        31.8193        31.0588         6.9150
         143       -37.6114        32.1078        31.3539         6.9170
         144       -50.2850        32.3968        31.6498         6.9169
         145       -30.5241        32.6855        31.9458         6.9146
         146       -46.0430        32.9751        32.2430         6.9102
         147       -91.6105        33.2646        32.5404         6.9035
         148       -25.7755        33.5544        32.8384         6.8947
         149         1.4467        33.8447        33.1372         6.8837
         150       -20.4531        34.1352        33.4366         6.8706
         151       -42.0768        34.4254        33.7359         6.8553
         152        -1.4288        34.7161        34.0361         6.8377
         153       -35.2195        35.0069        34.3365         6.8183
         154       -44.2839        35.2979        34.6374         6.7966
         155       -31.8630        35.5893        34.9389         6.7728
         156       -55.5853        35.8808        35.2407         6.7469
         157         8.6605        36.1724        35.5429         6.7192
         158       -25.7535        36.4649        35.8460         6.6894
         159       -47.3415        36.7571        36.1492         6.6576
         160       -49.2480        37.0502        36.4533         6.6238
         161       -90.1831        37.3433        36.7576         6.5882
         162       -53.3396        37.6360        37.0615         6.5507
         163       -68.8429        37.9295        37.3664         6.5114
         164       -88.2746        38.2229        37.6713         6.4702
         165       -93.8763        38.5166        37.9766         6.4274
         166       -65.2264        38.8101        38.2816         6.3828
         167       -87.1053        39.1042        38.5874         6.3364
         168      -128.1752        39.3981        38.8930         6.2887
         169      -107.5713        39.6918        39.1984         6.2392
         170       -19.3334        39.9854        39.5036         6.1885
         171       -11.9173        40.2794        39.8093         6.1362
         172       -28.9564        40.5728        40.1142         6.0826
         173       -44.0129        40.8660        40.4191         6.0277
         174       -67.2833        41.1593        40.7237         5.9718
         175       -32.4104        41.4526        41.0284         5.9149
         176       -68.7297        41.7453        41.3324         5.8568
         177       -90.8273        42.0377        41.6359         5.7980
         178       -42.7493        42.3297        41.9389         5.7385
         179       -16.1860        42.6215        42.2416         5.6783
         180       -41.7945        42.9129        42.5437         5.6176
         181        52.4108        43.2039        42.8451         5.5566
         182       -49.5517        43.4951        43.1465         5.4955
         183       -79.3058        43.7852        43.4467         5.4342
         184       -75.3150        44.0752        43.7464         5.3731
         185         3.2449        44.3648        44.0456         5.3124
         186       -16.7057        44.6539        44.3440         5.2520
         187       -33.0793        44.9426        44.6416         5.1924
         188       -58.3261        45.2312        44.9389         5.1336
         189       -66.7262        45.5186        45.2347         5.0759
         190       -91.9018        45.8063        45.5304         5.0195
         191       -21.1497        46.0927        45.8246         4.9646
         192       -65.8616        46.3793        46.1185         4.9115
         193        -5.7517        46.6649        46.4111         4.8603
         194       -55.0998        46.9504        46.7032         4.8114
         195        -6.0670        47.2351        46.9942         4.7650
         196       -74.3999        47.5194        47.2842         4.7213
         197       -47.4409        47.8028        47.5731         4.6806
         198       -73.4604        48.0862        47.8615         4.6431
         199        27.7021        48.3690        48.1489         4.6092
         200        62.9342        48.6505        48.4346         4.5791
         201        13.3213        48.9320        48.7197         4.5530
         202        49.7119        49.2129        49.0038         4.5311
         203       -41.0457        49.4924        49.2862         4.5137
         204       -33.3896        49.7712        49.5672         4.5010
         205        87.2493        50.0490        49.8469         4.4932
         206        93.8170        50.3259        50.1252         4.4904
         207       -72.5863        50.6024        50.4026         4.4929
         208        23.6383        50.8771        50.6776         4.5007
         209        22.4368        51.1508        50.9512         4.5139
         210        -3.8021        51.4237        51.2236         4.5328
         211        33.6409        51.6957        51.4944         4.5572
         212       -83.6910        51.9663        51.7634         4.5872
         213       -43.5578        52.2362        52.0312         4.6229
         214        58.8114        52.5047        52.2971         4.6640
         215        -6.9926        52.7715        52.5608         4.7109
         216         1.8992        53.0375        52.8232         4.7631
         217        51.3267        53.3027        53.0843         4.8205
         218        -6.6669        53.5662        53.3431         4.8832
         219       -54.9140        53.8283        53.6001         4.9510
         220       -76.0378        54.0892        53.8554         5.0237
         221        28.4846        54.3486        54.1087         5.1011
         222        75.1286        54.6063        54.3598         5.1829
         223        48.8182        54.8625        54.6089         5.2693
         224       -38.3410        55.1173        54.8561         5.3596
         225         7.8776        55.3700        55.1007         5.4540
         226       125.9435        55.6216        55.3438         5.5520
         227       -65.7556        55.8711        55.5843         5.6537
         228        -0.3372        56.1192        55.8229         5.7586
         229        15.9871        56.3655        56.0594         5.8667
         230        -0.8603        56.6099        56.2934         5.9776
         231        34.4790        56.8520        56.5247         6.0912
         232         5.9008        57.0931        56.7546         6.2074
         233       110.3762        57.3316        56.9815         6.3260
         234       -37.1129        57.5681        57.2060         6.4466
         235        28.5553        57.8031        57.4286         6.5693
         236        43.9406        58.0356        57.6483         6.6937
         237       -57.5508        58.2663        57.8658         6.8199
         238         8.6694        58.4946        58.0806         6.9474
         239        39.0522        58.7210        58.2931         7.0762
         240        73.9345        58.9447        58.5026         7.2061
         241       -15.8606        59.1668        58.7101         7.3371
         242        20.7410        59.3860        58.9145         7.4689
         243        77.5916        59.6032        59.1165         7.6015
         244       103.7873        59.8181        59.3159         7.7345
         245        34.5975        60.0300        59.5121         7.8682
         246        11.5520        60.2401        59.7062         8.0021
         247         8.4083        60.4472        59.8972         8.1361
         248        34.5238        60.6521        60.0856         8.2703
         249        57.6307        60.8545        60.2714         8.4045
         250        97.4756        61.0544        60.4543         8.5386
         251       -40.3965        61.2512        60.6341         8.6724
         252       127.3642        61.4454        60.8112         8.8059
         253        58.0447        61.6373        60.9857         8.9389
         254         7.6664        61.8259        61.1567         9.0714
         255        85.5118        62.0118        61.3251         9.2031
         256        91.2921        62.1945        61.4901         9.3343
         257        61.4344        62.3749        61.6527         9.4645
         258       107.6461        62.5520        61.8119         9.5938
         259       -20.2521        62.7259        61.9679         9.7221
         260       168.1133        62.8975        62.1215         9.8496
         261        70.4711        63.0660        62.2720         9.9756
         262        28.7621        63.2311        62.4192        10.1006
         263       148.7517        63.3939        62.5639        10.2245
         264        79.1566        63.5537        62.7058        10.3469
         265         1.3190        63.7101        62.8443        10.4678
         266       129.2021        63.8637        62.9800        10.5876
         267        20.5594        64.0142        63.1126        10.7054
         268         5.5303        64.1617        63.2424        10.8219
         269        -7.1885        64.3061        63.3693        10.9368
         270        70.5954        64.4471        63.4927        11.0499
         271       108.2602        64.5848        63.6131        11.1611
         272        39.1406        64.7198        63.7309        11.2706
         273       154.8981        64.8516        63.8457        11.3782
         274       144.6327        64.9801        63.9572        11.4839
         275       108.3516        65.1050        64.0655        11.5876
         276       129.7262        65.2275        64.1715        11.6893
         277       202.0187        65.3459        64.2737        11.7890
         278       189.1115        65.4617        64.3736        11.8864
         279        68.3625        65.5744        64.4704        11.9818
         280        55.7662        65.6837        64.5642        12.0752
         281       124.0765        65.7901        64.6554        12.1663
         282       121.8480        65.8928        64.7432        12.2550
         283       110.0569        65.9929        64.8286        12.3415
         284       141.1702        66.0895        64.9109        12.4257
         285       181.0438        66.1832        64.9905        12.5076
         286        39.0480        66.2731        65.0668        12.5869
         287        68.1529        66.3602        65.1406        12.6639
         288       103.5759        66.4444        65.2119        12.7387
         289       173.5850        66.5256        65.2804        12.8111
         290        -7.0183        66.6035        65.3461        12.8808
         291        55.2630        66.6787        65.4094        12.9483
         292       160.0929        66.7501        65.4694        13.0129
         293       127.6978        66.8195        65.5277        13.0750
         294       183.3512        66.8851        65.5827        13.1351
         295       122.7040        66.9480        65.6354        13.1920
         296         3.0314        67.0078        65.6855        13.2466
         297        84.2197        67.0645        65.7328        13.2985
         298       -31.6847        67.1181        65.7774        13.3480
         299       123.4588        67.1693        65.8202        13.3947
         300       193.2589        67.2174        65.8603        13.4385
         301        36.2913        67.2623        65.8977        13.4802
         302        43.3444        67.3050        65.9333        13.5188
         303        14.7871        67.3452        65.9668        13.5554
         304       195.8502        67.3822        65.9977        13.5891
         305       114.4628        67.4169        66.0267        13.6203
         306       -72.8811        67.4489        66.0535        13.6487
         307        64.1307        67.4782        66.0781        13.6745
         308       181.9274        67.5053        66.1009        13.6983
         309        59.3712        67.5308        66.1225        13.7192
         310       202.6874        67.5527        66.1412        13.7371
         311       220.3920        67.5728        66.1584        13.7530
         312       123.4658        67.5913        66.1745        13.7663
         313        81.4678        67.6069        66.1882        13.7770
         314        64.8144        67.6210        66.2010        13.7853
         315        50.9620        67.6318        66.2109        13.7907
         316       202.6768        67.6419        66.2205        13.7940
         317       199.4111        67.6494        66.2280        13.7946
         318       156.4943        67.6563        66.2354        13.7931
         319        53.2947        67.6603        66.2403        13.7892
         320       117.9771        67.6634        66.2448        13.7829
         321        70.1514        67.6644        66.2476        13.7739
         322        30.7491        67.6641        66.2496        13.7630
         323       -48.4510        67.6629        66.2511        13.7499
         324        66.1040        67.6595        66.2508        13.7344
         325       154.9857        67.6561        66.2510        13.7167
         326       155.9329        67.6510        66.2499        13.6967
         327       163.3810        67.6453        66.2487        13.6747
         328       207.1732        67.6378        66.2460        13.6506
         329       246.8145        67.6304        66.2438        13.6247
         330        35.4449        67.6215        66.2406        13.5962
         331        99.9622        67.6135        66.2385        13.5660
         332       112.9134        67.6036        66.2350        13.5341
         333       136.4586        67.5947        66.2329        13.5001
         334        94.6854        67.5850        66.2302        13.4644
         335       -11.0043        67.5762        66.2289        13.4270
         336       255.3070        67.5659        66.2264        13.3873
         337       113.9759        67.5559        66.2244        13.3466
         338        78.1685        67.5465        66.2234        13.3037
         339       172.7669        67.5383        66.2238        13.2598
         340       176.5569        67.5301        66.2247        13.2140
         341       176.5101        67.5222        66.2260        13.1667
         342       149.3133        67.5156        66.2289        13.1183
         343        -3.2913        67.5104        66.2335        13.0684
         344        47.6437        67.5063        66.2393        13.0172
         345        83.8157        67.5023        66.2456        12.9643
         346       148.8713        67.5013        66.2550        12.9111
         347       101.8804        67.5002        66.2647        12.8560
         348        85.5974        67.5011        66.2764        12.7998
         349       192.0221        67.5043        66.2907        12.7429
         350       -38.4390        67.5085        66.3060        12.6848
         351        46.2644        67.5157        66.3245        12.6262
         352        19.4786        67.5255        66.3459        12.5665
         353         9.9074        67.5371        66.3691        12.5061
         354       106.8952        67.5509        66.3946        12.4450
         355        65.3675        67.5684        66.4240        12.3835
         356       114.6910        67.5891        66.4565        12.3215
         357       185.3293        67.6129        66.4923        12.2592
         358       136.1801        67.6390        66.5303        12.1963
         359        17.4940        67.6691        66.5725        12.1329
         360        89.6117        67.7031        66.6186        12.0694
         361        56.3662        67.7397        66.6673        12.0057
         362        15.0533        67.7810        66.7207        11.9418
         363        22.2791        67.8268        66.7786        11.8780
         364        48.0953        67.8753        66.8393        11.8140
         365       101.8332        67.9287        66.9048        11.7500
         366        77.6392        67.9870        66.9751        11.6863
         367        40.4094        68.0499        67.0500        11.6227
         368         4.7609        68.1174        67.1294        11.5593
         369        50.3472        68.1906        67.2145        11.4966
         370        17.2508        68.2688        67.3045        11.4340
         371       123.6455        68.3521        67.3994        11.3718
         372       -92.0050        68.4394        67.4984        11.3101
         373        94.5847        68.5335        67.6040        11.2492
         374       -32.0337        68.6342        67.7160        11.1890
         375         3.2553        68.7390        67.8321        11.1291
         376       159.2793        68.8500        67.9542        11.0702
         377       150.0630        68.9687        68.0838        11.0122
         378       224.5812        69.0924        68.2184        10.9547
         379        66.7729        69.2228        68.3595        10.8983
         380        91.8556        69.3603        68.5076        10.8429
         381        -3.0970        69.5034        68.6610        10.7885
         382       -40.2371        69.6537        68.8215        10.7349
         383        45.3234        69.8105        68.9884        10.6825
         384        86.7916        69.9759        69.1636        10.6312
         385        52.1643        70.1469        69.3443        10.5811
         386         7.2093        70.3258        69.5326        10.5321
         387       -60.5829        70.5117        69.7279        10.4844
         388       -26.4998        70.7054        69.9308        10.4378
         389       -61.5384        70.9064        70.1406        10.3925
         390      -141.7971        71.1147        70.3577        10.3486
         391       -60.2176        71.3310        70.5825        10.3061
         392         8.4462        71.5542        70.8141        10.2646
         393        72.8857        71.7871        71.0552        10.2248
         394        -1.7260        72.0270        71.3031        10.1860
         395        82.6584        72.2745        71.5584        10.1487
         396        92.6780        72.5309        71.8225        10.1129
         397       -81.9785        72.7938        72.0928        10.0781
         398       106.6510        73.0657        72.3720        10.0448
         399       -50.9041        73.3466        72.6599        10.0128
         400       -16.4018        73.6343        72.9545         9.9821
         401        26.1859        73.9314        73.2584         9.9527
         402       -23.7685        74.2378        73.5713         9.9247
         403       -27.4620        74.5508        73.8908         9.8980
         404         6.1241        74.8725        74.2188         9.8723
         405        13.4585        75.2028        74.5553         9.8478
         406      -103.5597        75.5411        74.8995         9.8247
         407       -85.5496        75.8893        75.2535         9.8028
         408        88.4608        76.2456        75.6155         9.7819
         409        87.1420        76.6093        75.9847         9.7622
         410        42.9300        76.9820        76.3629         9.7433
         411      -117.0554        77.3631        76.7494         9.7254
         412        66.7321        77.7520        77.1435         9.7085
         413        19.1251        78.1499        77.5465         9.6926
         414       -13.0487        78.5556        77.9572         9.6773
         415        -9.0193        78.9703        78.3769         9.6631
         416       -40.6955        79.3925        78.8039         9.6495
         417       -75.6055        79.8235        79.2397         9.6367
         418      -153.5210        80.2623        79.6831         9.6244
         419       -79.3932        80.7093        80.1348         9.6127
         420       -85.9281        81.1653        80.5953         9.6018
         421       -41.9049        81.6299        81.0644         9.5913
         422       -31.3517        82.1010        81.5400         9.5811
         423      -163.5392        82.5802        82.0237         9.5712
         424         4.8582        83.0675        82.5154         9.5616
         425       -32.9459        83.5631        83.0153         9.5523
         426       -89.6023        84.0676        83.5241         9.5433
         427      -166.4613        84.5781        84.0390         9.5344
         428       101.7979        85.0967        84.5619         9.5254
         429      -150.3556        85.6234        85.0929         9.5165
         430      -142.2649        86.1582        85.6320         9.5079
         431       -84.4913        86.6992        86.1773         9.4989
         432        58.8337        87.2480        86.7304         9.4896
         433      -249.0418        87.8041        87.2908         9.4804
         434       -84.6352        88.3679        87.8589         9.4709
         435       -48.4682        88.9379        88.4332         9.4612
         436      -159.4198        89.5155        89.0152         9.4510
         437       -34.1892        90.1015        89.6055         9.4407
         438      -101.1531        90.6930        90.2014         9.4296
         439        68.9250        91.2927        90.8055         9.4183
         440      -259.3926        91.8979        91.4152         9.4064
         441       119.3008        92.5109        92.0327         9.3940
         442      -106.9513        93.1298        92.6561         9.3808
         443      -127.0666        93.7566        93.2875         9.3670
         444       -62.6038        94.3881        93.9236         9.3526
         445       -10.7015        95.0280        94.5681         9.3373
         446       -67.8362        95.6719        95.2167         9.3213
         447      -171.3444        96.3237        95.8732         9.3046
         448       106.6586        96.9804        96.5348         9.2869
         449       -24.9406        97.6422        97.2013         9.2681
         450      -210.7469        98.3125        97.8765         9.2489
         451        10.8482        98.9880        98.5569         9.2286
         452       -88.7065        99.6683        99.2421         9.2072
         453      -153.9580       100.3559        99.9347         9.1851
         454      -255.2723       101.0476       100.6314         9.1618
         455      -136.3519       101.7448       101.3337         9.1375
         456       -85.8281       102.4494       102.0433         9.1123
         457      -331.2437       103.1575       102.7565         9.0861
         458        17.4460       103.8707       103.4750         9.0586
         459       -47.0736       104.5911       104.2005         9.0305
         460        39.6486       105.3142       104.9288         9.0009
         461       -97.7691       106.0438       105.6637         8.9704
         462       -58.0343       106.7765       106.4017         8.9386
         463        14.7538       107.5148       107.1453         8.9060
         464         1.9283       108.2576       107.8935         8.8721
         465      -201.0545       109.0060       108.6472         8.8374
         466      -192.5485       109.7582       109.4048         8.8011
         467      -112.1308       110.5156       110.1675         8.7642
         468       -83.3148       111.2764       110.9338         8.7260
         469      -211.0322       112.0420       111.7048         8.6868
         470        -9.5717       112.8130       112.4812         8.6466
         471        35.2137       113.5863       113.2599         8.6053
         472       -17.6583       114.3646       114.0435         8.5631
         473         5.3620       115.1460       114.8304         8.5200
         474        14.0391       115.9316       115.6213         8.4758
         475       113.5180       116.7218       116.4169         8.4307
         476       -99.5733       117.5140       117.2145         8.3847
         477       -47.5275       118.3104       118.0163         8.3380
         478       -78.9944       119.1116       118.8228         8.2902
         479      -168.4322       119.9156       119.6320         8.2418
         480      -304.0035       120.7228       120.4445         8.1925
         481        61.6551       121.5331       121.2601         8.1424
         482      -174.9209       122.3483       122.0805         8.0916
         483        10.2177       123.1659       122.9032         8.0403
         484       153.8316       123.9855       123.7279         7.9881
         485      -193.8772       124.8092       124.5567         7.9356
         486      -193.1162       125.6359       125.3884         7.8825
         487       323.6624       126.4645       126.2220         7.8289
         488        17.7184       127.2965       127.0588         7.7747
         489       -84.9647       128.1308       127.8980         7.7202
         490       -58.9593       128.9686       128.7406         7.6654
         491       -45.4720       129.8072       129.5839         7.6104
         492        -7.0171       130.6494       130.4308         7.5551
         493      -282.7674       131.4945       131.2805         7.4994
         494       -21.3877       132.3426       132.1331         7.4441
         495       -28.0997       133.1923       132.9872         7.3885
         496       100.1603       134.0441       133.8433         7.3331
         497      -171.2654       134.8989       134.7024         7.2779
         498      -152.4276       135.7551       135.5628         7.2225
         499       -76.1602       136.6152       136.4270         7.1679
         500       157.9153       137.4759       137.2917         7.1132
         501       -51.5461       143.5647       143.3649         7.5701
         502       -37.0938       144.4447       144.2492         7.5127
         503        60.6149       145.3260       145.1347         7.4558
         504      -323.9991       146.2073       146.0199         7.3993
         505       -45.6929       147.0914       146.9079         7.3440
         506       -66.8705       147.9763       147.7967         7.2894
         507      -204.1262       148.8628       148.6868         7.2359
         508       -98.1660       149.7515       149.5791         7.1836
         509      -325.9004       150.6392       150.4703         7.1323
         510       -82.8148       151.5285       151.3629         7.0822
         511       -97.8661       152.4199       152.2576         7.0336
         512      -131.8695       153.3117       153.1524         6.9863
         513       228.7256       154.2055       154.0493         6.9406
         514      -246.5198       155.1009       154.9475         6.8966
         515      -144.7252       155.9956       155.8449         6.8542
         516       196.7099       156.8920       156.7440         6.8137
         517       -85.2865       157.7887       157.6432         6.7749
         518        49.8848       158.6870       158.5439         6.7382
         519       -69.4721       159.5869       159.4460         6.7035
         520       211.4726       160.4850       160.3463         6.6709
         521        58.6108       161.3855       161.2488         6.6404
         522        12.8667       162.2854       162.1506         6.6122
         523      -117.3949       163.1873       163.0543         6.5863
         524       -88.5838       164.0895       163.9582         6.5628
         525      -108.6465       164.9923       164.8626         6.5417
         526      -204.8696       165.8943       165.7660         6.5230
         527      -275.2146       166.7968       166.6698         6.5068
         528       303.7375       167.7013       167.5755         6.4931
         529        25.2704       168.6062       168.4816         6.4821
         530      -162.4925       169.5112       169.3875         6.4737
         531       -32.5243       170.4182       170.2954         6.4679
         532      -130.6279       171.3240       171.2020         6.4647
         533        37.7997       172.2303       172.1090         6.4640
         534       119.9768       173.1371       173.0163         6.4661
         535      -158.9689       174.0451       173.9248         6.4708
         536       -36.5371       174.9543       174.8343         6.4781
         537       403.5046       175.8626       175.7429         6.4879
         538      -124.1043       176.7721       176.6525         6.5003
         539       123.2133       177.6806       177.5612         6.5152
         540       -77.3908       178.5920       178.4724         6.5326
         541       -89.9154       179.5033       179.3836         6.5525
         542      -196.3807       180.4154       180.2955         6.5747
         543        82.9654       181.3266       181.2065         6.5992
         544      -260.6363       182.2408       182.1203         6.6261
         545        82.5325       183.1536       183.0327         6.6551
         546        55.4832       184.0694       183.9479         6.6863
         547      -314.5383       184.9838       184.8618         6.7195
         548      -405.8799       185.8997       185.7769         6.7549
         549       258.3864       186.8181       186.6946         6.7920
         550        89.3761       187.7356       187.6112         6.8309
         551       200.1519       188.6552       188.5300         6.8716
         552      -393.9114       189.5746       189.4485         6.9140
         553      -380.0329       190.4967       190.3696         6.9577
         554      -134.9810       191.4183       191.2901         7.0032
         555        86.2214       192.3427       192.2134         7.0502
         556       -42.1653       193.2668       193.1364         7.0982
         557      -195.3708       194.1944       194.0628         7.1477
         558        -4.2939       195.1228       194.9900         7.1983
         559        82.6233       196.0518       195.9177         7.2498
         560       137.9178       196.9834       196.8480         7.3024
         561       100.1536       197.9165       197.7798         7.3558
         562       -77.7573       198.8523       198.7141         7.4102
         563      -284.2616       199.7891       199.6496         7.4652
         564       -10.4676       200.7301       200.5892         7.5208
         565       534.8618       201.6725       201.5301         7.5772
         566      -179.2080       202.6155       202.4716         7.6340
         567      -211.6099       203.5622       203.4168         7.6908
         568       144.7896       204.5113       204.3644         7.7484
         569      -162.9110       205.4629       205.3145         7.8063
         570         2.5892       206.4165       206.2666         7.8641
         571      -317.1628       207.3759       207.2245         7.9224
         572        45.3529       208.3340       208.1811         7.9806
         573      -103.2354       209.2978       209.1433         8.0387
         574        92.8935       210.2663       210.1103         8.0969
         575      -329.0364       211.2349       211.0775         8.1548
         576        89.2734       212.2091       212.0501         8.2126
         577      -282.4539       213.1856       213.0251         8.2704
         578       240.4560       214.1685       214.0066         8.3278
         579        32.2717       215.1558       214.9924         8.3849
         580      -123.3008       216.1465       215.9816         8.4417
         581       -31.3691       217.1409       216.9745         8.4980
         582        68.7436       218.1365       217.9688         8.5538
         583       -40.7860       219.1409       218.9717         8.6093
         584        51.6186       220.1517       219.9811         8.6643
         585        41.0134       221.1671       220.9952         8.7186
         586       176.0108       222.1892       222.0160         8.7723
         587        96.8775       223.2131       223.0386         8.8254
         588       220.7585       224.2432       224.0674         8.8779
         589       176.3842       225.2821       225.1050         8.9298
         590        26.5712       226.3208       226.1425         8.9808
         591       197.4383       227.3702       227.1908         9.0313
         592       515.4637       228.4280       228.2475         9.0809
         593        95.7155       229.4892       229.3075         9.1298
         594      -214.2804       230.5566       230.3739         9.1780
         595       -68.6652       231.6361       231.4524         9.2251
         596       366.6120       232.7162       232.5315         9.2717
         597       211.5668       233.8082       233.6225         9.3173
         598       108.0726       234.9054       234.7188         9.3620
         599       295.3141       236.0110       235.8235         9.4060
         600        30.6462       237.1269       236.9385         9.4492
         601       -66.2578       238.2466       238.0575         9.4913
         602       379.2394       239.3732       239.1833         9.5326
         603       284.6303       240.5147       240.3241         9.5730
         604       -70.8409       241.6604       241.4692         9.6127
         605        83.3490       242.8162       242.6243         9.6514
         606       469.3198       243.9834       243.7909         9.6892
         607      -193.8347       245.1551       244.9621         9.7261
         608       151.1701       246.3414       246.1479         9.7622
         609       -71.9770       247.5294       247.3354         9.7974
         610       169.2897       248.7362       248.5418         9.8318
         611       -66.0956       249.9498       249.7551         9.8653
         612       222.2576       251.1735       250.9784         9.8980
         613       255.8721       252.4065       252.2111         9.9297
         614       156.1373       253.6507       253.4550         9.9608
         615       222.8329       254.9052       254.7093         9.9908
         616      -309.7289       256.1688       255.9728        10.0202
         617      -172.3071       257.4459       257.2497        10.0489
         618       -48.5691       258.7361       258.5398        10.0769
         619      -141.7057       260.0352       259.8388        10.1039
         620       197.8358       261.3486       261.1522        10.1305
         621      -521.5938       262.6705       262.4741        10.1562
         622       139.0300       264.0123       263.8159        10.1813
         623      -331.2538       265.3611       265.1648        10.2057
         624      -162.7158       266.7208       266.5245        10.2293
         625        84.6531       268.0968       267.9007        10.2526
         626      -314.5841       269.4839       269.2880        10.2751
         627        45.4355       270.8869       270.6911        10.2972
         628      -125.7362       272.2975       272.1019        10.3185
         629        49.7115       273.7263       273.5309        10.3397
         630      -567.4888       275.1672       274.9721        10.3599
         631      -285.9062       276.6253       276.4305        10.3799
         632      -112.6472       278.0947       277.9001        10.3993
         633       330.8435       279.5792       279.3851        10.4184
         634      -427.3919       281.0796       280.8858        10.4370
         635      -600.2780       282.5928       282.3993        10.4552
         636      -580.0905       284.1201       283.9270        10.4731
         637      -344.7481       285.6676       285.4749        10.4905
         638       434.2827       287.2283       287.0360        10.5078
         639       160.5031       288.7985       288.6067        10.5247
         640       -85.1573       290.3960       290.2046        10.5414
         641      -273.5264       291.9987       291.8078        10.5580
         642      -266.5135       293.6236       293.4332        10.5739
         643       -67.0380       295.2636       295.0737        10.5900
         644       289.0485       296.9167       296.7272        10.6059
         645      -147.2652       298.5900       298.4010        10.6215
         646       510.1556       300.2769       300.0884        10.6370
         647       741.0739       301.9862       301.7983        10.6525
         648       213.2610       303.7109       303.5235        10.6678
         649      -305.2087       305.4476       305.2607        10.6830
         650       112.1971       307.2120       307.0257        10.6981
         651      -538.3916       308.9839       308.7981        10.7134
         652       -10.2096       310.7794       310.5941        10.7284
         653       121.3004       312.5920       312.4073        10.7437
         654      -152.3629       314.4243       314.2402        10.7588
         655       -39.6228       316.2704       316.0869        10.7740
         656        48.1362       318.1405       317.9575        10.7894
         657       218.9701       320.0258       319.8434        10.8049
         658      -227.5842       321.9312       321.7493        10.8203
         659       186.8529       323.8520       323.6707        10.8359
         660      -397.8872       325.8001       325.6193        10.8516
         661      -491.7754       327.7611       327.5809        10.8674
         662      -134.5039       329.7428       329.5632        10.8835
         663       339.7292       331.7428       331.5637        10.8995
         664      -250.6323       333.7698       333.5912        10.9156
         665       172.3330       335.8075       335.6295        10.9319
         666      -120.5764       337.8679       337.6905        10.9484
         667      -140.0545       339.9508       339.7740        10.9650
         668      -244.2608       342.0499       341.8735        10.9818
         669      -130.7550       344.1750       343.9992        10.9988
         670      -452.9862       346.3142       346.1390        11.0157
         671      -353.2614       348.4815       348.3068        11.0331
         672      -547.9891       350.6639       350.4897        11.0504
         673      -108.6686       352.8684       352.6948        11.0680
         674      -178.9144       355.0950       354.9219        11.0855
         675       174.6635       357.3448       357.1722        11.1032
         676       262.7427       359.6108       359.4388        11.1211
         677      -308.1598       361.8997       361.7282        11.1389
         678       -38.6426       364.2105       364.0395        11.1569
         679      -554.3482       366.5427       366.3723        11.1751
         680      -845.6804       368.8921       368.7222        11.1934
         681       306.9229       371.2708       371.1015        11.2115
         682       519.0292       373.6667       373.4980        11.2296
         683      -701.6852       376.0871       375.9188        11.2480
         684       769.7598       378.5251       378.3574        11.2661
         685        47.8865       380.9878       380.8206        11.2842
         686        53.2041       383.4702       383.3036        11.3023
         687       415.2813       385.9765       385.8104        11.3205
         688      -686.6174       388.5034       388.3379        11.3384
         689      -413.9217       391.0567       390.8918        11.3563
         690      -358.0238       393.6285       393.4642        11.3740
         691      -245.2584       396.2185       396.0547        11.3917
         692       319.6346       398.8334       398.6702        11.4091
         693       289.1201       401.4688       401.3062        11.4266
         694      -609.1780       404.1318       403.9697        11.4435
         695      -461.2050       406.8155       406.6540        11.4605
         696     -1064.8070       409.5221       409.3612        11.4772
         697       203.9953       412.2537       412.0934        11.4937
         698       394.1815       414.9964       414.8367        11.5094
         699      -470.2888       417.7714       417.6124        11.5252
         700       314.1579       420.5702       420.4118        11.5405
         701      -616.7527       423.3841       423.2264        11.5553
         702       218.2453       426.2221       426.0650        11.5698
         703      -234.0531       429.0876       428.9312        11.5838
         704       281.3992       431.9707       431.8150        11.5974
         705       170.6784       434.8764       434.7213        11.6103
         706        61.1286       437.8066       437.6523        11.6228
         707      -470.2922       440.7616       440.6080        11.6347
         708       486.7401       443.7376       443.5847        11.6461
         709       106.5245       446.7282       446.5761        11.6569
         710      -682.6859       449.7480       449.5966        11.6670
         711      -300.4811       452.7918       452.6412        11.6764
         712        82.0055       455.8593       455.7095        11.6851
         713       242.3364       458.9429       458.7940        11.6932
         714      -400.4025       462.0573       461.9091        11.7004
         715       581.0427       465.1886       465.0413        11.7069
         716       572.5424       468.3434       468.1969        11.7126
         717      -667.5931       471.5215       471.3759        11.7173
         718       189.4817       474.7185       474.5738        11.7214
         719       105.3770       477.9446       477.8007        11.7246
         720       586.3920       481.1908       481.0479        11.7265
         721      -352.4892       484.4646       484.3227        11.7279
         722      -915.1486       487.7427       487.6017        11.7280
         723      1108.8720       491.0683       490.9283        11.7275
         724      -216.5990       494.3992       494.2601        11.7259
         725        20.7054       497.7618       497.6237        11.7233
         726       486.4609       501.1396       501.0025        11.7197
         727       183.2602       504.5475       504.4115        11.7150
         728       -40.1190       507.9673       507.8323        11.7093
         729     -1047.4200       511.4213       511.2874        11.7024
         730        63.7249       514.8893       514.7565        11.6945
         731      -493.4164       518.3931       518.2614        11.6856
         732       211.3635       521.9052       521.7746        11.6755
         733      -828.1876       525.4520       525.3225        11.6643
         734       -56.7575       529.0106       528.8822        11.6518
         735     -1151.6070       532.6079       532.4807        11.6384
         736      -704.4654       536.2130       536.0870        11.6234
         737     -1058.2850       539.8453       539.7205        11.6075
         738        60.7901       543.5057       543.3821        11.5905
         739      -444.2736       547.1800       547.0576        11.5720
         740      -401.1347       550.8892       550.7681        11.5523
         741      -459.0078       554.6086       554.4887        11.5315
         742       808.4817       558.3562       558.2376        11.5094
         743     -1088.3020       562.1299       562.0126        11.4861
         744       769.6000       565.9256       565.8095        11.4615
         745       182.2234       569.7444       569.6296        11.4357
         746      -924.7332       573.5799       573.4665        11.4084
         747       500.4678       577.4466       577.3344        11.3801
         748       581.5314       581.3438       581.2330        11.3505
         749       353.8467       585.2521       585.1427        11.3195
         750       -88.8689       589.1857       589.0775        11.2875
         751       -71.5600       593.1493       593.0425        11.2542
         752      -678.8110       597.1280       597.0226        11.2194
         753      -151.8093       601.1343       601.0303        11.1834
         754       123.5524       605.1630       605.0604        11.1462
         755         0.6937       609.2099       609.1086        11.1079
         756      -544.5172       613.2863       613.1864        11.0682
         757      -942.4449       617.3886       617.2901        11.0275
         758       354.0942       621.5120       621.4149        10.9853
         759      -399.2181       625.6559       625.5602        10.9421
         760      -538.6437       629.8338       629.7395        10.8978
         761         4.6780       634.0302       633.9373        10.8523
         762       791.8105       638.2449       638.1534        10.8058
         763       239.2118       642.4960       642.4059        10.7581
         764      -359.6498       646.7719       646.6832        10.7094
         765     -1107.5970       651.0520       650.9647        10.6592
         766      -560.3956       655.3797       655.2938        10.6082
         767      -139.0882       659.7204       659.6360        10.5562
         768      -663.8923       664.0822       663.9991        10.5029
         769      -224.7499       668.4745       668.3928        10.4487
         770        22.5591       672.8962       672.8159        10.3936
         771      -576.9006       677.3323       677.2535        10.3374
         772       786.1562       681.7953       681.7178        10.2801
         773      -251.2727       686.2863       686.2101        10.2221
         774     -1448.1940       690.7995       690.7247        10.1633
         775        27.5868       695.3359       695.2624        10.1035
         776       936.1312       699.8996       699.8276        10.0430
         777      -689.0680       704.4956       704.4248         9.9817
         778     -1119.7330       709.1107       709.0413         9.9196
         779        56.0927       713.7455       713.6774         9.8570
         780       424.8774       718.4106       718.3438         9.7935
         781       221.6767       723.0989       723.0335         9.7296
         782        13.7706       727.8172       727.7530         9.6650
         783      -889.9797       732.5611       732.4982         9.6000
         784      -349.7677       737.3326       737.2709         9.5344
         785       -60.6212       742.1222       742.0618         9.4682
         786      -610.7078       746.9388       746.8796         9.4015
         787      -307.1004       751.7795       751.7215         9.3346
         788     -1166.7640       756.6532       756.5965         9.2672
         789       673.4742       761.5579       761.5023         9.1996
         790       518.3837       766.4823       766.4279         9.1317
         791      1625.4840       771.4254       771.3721         9.0633
         792       705.0616       776.3994       776.3473         8.9951
         793       206.8374       781.4002       781.3492         8.9267
         794       168.7350       786.4339       786.3840         8.8583
         795     -1106.1250       791.4729       791.4240         8.7899
         796     -2008.6140       796.5523       796.5046         8.7218
         797      -234.6653       801.6621       801.6154         8.6535
         798      -190.1766       806.7948       806.7491         8.5858
         799      -194.0959       811.9544       811.9097         8.5182
         800      1013.4900       817.1403       817.0966         8.4508
         801     -1133.7940       822.3559       822.3131         8.3840
         802        10.4737       827.6011       827.5593         8.3173
         803      1392.9110       832.8723       832.8314         8.2512
         804     -1339.0550       838.1613       838.1214         8.1855
         805      -330.3330       843.4838       843.4447         8.1206
         806       688.8906       848.8446       848.8064         8.0561
         807      1146.7450       854.2205       854.1831         7.9925
         808      1087.4980       859.6274       859.5909         7.9295
         809       958.4669       865.0524       865.0166         7.8677
         810      -711.4662       870.5155       870.4805         7.8066
         811      1696.3360       876.0064       875.9722         7.7464
         812      1934.3690       881.5214       881.4879         7.6874
         813     -2070.8140       887.0725       887.0397         7.6293
         814      -372.8374       892.6414       892.6093         7.5726
         815      -447.7245       898.2509       898.2194         7.5171
         816      1295.8440       903.8766       903.8458         7.4629
         817      -758.0463       909.5345       909.5043         7.4098
         818       -79.0504       915.2295       915.1999         7.3584
         819       -83.0968       920.9412       920.9122         7.3084
         820       822.0416       926.6936       926.6651         7.2599
         821      -168.7788       932.4777       932.4498         7.2128
         822      -293.9249       938.2784       938.2510         7.1674
         823      -471.9223       944.1231       944.0962         7.1236
         824       165.1026       949.9809       949.9545         7.0816
         825       171.9110       955.8878       955.8618         7.0412
         826       888.5732       961.8053       961.7798         7.0027
         827       975.5518       967.7742       967.7491         6.9661
         828      -647.9903       973.7628       973.7381         6.9313
         829     -1344.9660       979.7718       979.7475         6.8984
         830       413.3704       985.8330       985.8091         6.8677
         831       191.6794       991.9184       991.8949         6.8387
         832        69.9928       998.0256       998.0023         6.8117
         833     -1024.8350      1004.1771      1004.1541         6.7870
         834        -1.0474      1010.3560      1010.3334         6.7640
         835      -924.9880      1016.5614      1016.5391         6.7434
         836       339.6359      1022.8116      1022.7895         6.7244
         837     -1164.3320      1029.0860      1029.0642         6.7079
         838       801.0027      1035.3941      1035.3724         6.6932
         839       -57.4343      1041.7319      1041.7104         6.6805
         840       671.7575      1048.1068      1048.0856         6.6700
         841      -334.8257      1054.5126      1054.4915         6.6614
         842      1843.0490      1060.9525      1060.9316         6.6547
         843      2977.5420      1067.4366      1067.4159         6.6502
         844      -147.7672      1073.9477      1073.9271         6.6474
         845      -675.0589      1080.4765      1080.4561         6.6466
         846       143.8081      1087.0752      1087.0549         6.6478
         847      1009.1890      1093.6729      1093.6526         6.6508
         848     -1910.5380      1100.3347      1100.3146         6.6556
         849       167.0430      1107.0201      1107.0001         6.6622
         850       815.0474      1113.7367      1113.7168         6.6706
         851     -1208.5840      1120.4870      1120.4671         6.6807
         852       352.9055      1127.2948      1127.2749         6.6924
         853      -885.6339      1134.1171      1134.0973         6.7057
         854       991.5269      1140.9856      1140.9658         6.7205
         855       972.6507      1147.9027      1147.8829         6.7366
         856       243.8988      1154.8331      1154.8134         6.7543
         857      -571.6254      1161.7980      1161.7782         6.7733
         858       829.0746      1168.8161      1168.7964         6.7936
         859       -31.5037      1175.8769      1175.8571         6.8148
         860     -2077.5990      1182.9640      1182.9442         6.8374
         861     -1593.5150      1190.0969      1190.0771         6.8610
         862       644.4188      1197.2643      1197.2445         6.8857
         863      -784.9393      1204.4812      1204.4614         6.9113
         864        35.5694      1211.7380      1211.7182         6.9376
         865     -1695.1580      1219.0324      1219.0125         6.9649
         866        -4.5194      1226.3600      1226.3401         6.9933
         867      1965.7370      1233.7359      1233.7159         7.0220
         868       622.2815      1241.1472      1241.1272         7.0515
         869      1106.2720      1248.5902      1248.5701         7.0817
         870      1903.5020      1256.0902      1256.0700         7.1124
         871       344.0765      1263.6239      1263.6037         7.1434
         872     -1918.2190      1271.1915      1271.1712         7.1748
         873       -55.7789      1278.8279      1278.8076         7.2066
         874      -498.7081      1286.4772      1286.4568         7.2387
         875      2683.7090      1294.1807      1294.1602         7.2709
         876      1908.7250      1301.9238      1301.9033         7.3033
         877     -1610.4290      1309.7240      1309.7035         7.3359
         878      -354.1376      1317.5532      1317.5326         7.3683
         879     -1727.8500      1325.4361      1325.4154         7.4010
         880      -883.1009      1333.3561      1333.3353         7.4334
         881       208.4881      1341.3324      1341.3116         7.4657
         882     -2161.5390      1349.3337      1349.3128         7.4979
         883       396.1775      1357.3904      1357.3695         7.5301
         884       498.9583      1365.4861      1365.4651         7.5618
         885      2323.4070      1373.6349      1373.6139         7.5932
         886       228.0220      1381.8255      1381.8044         7.6245
         887     -1254.4700      1390.0745      1390.0534         7.6554
         888      -409.9020      1398.3599      1398.3388         7.6859
         889       154.3886      1406.6813      1406.6601         7.7158
         890      1899.5350      1415.0487      1415.0275         7.7454
         891      1575.5300      1423.4863      1423.4651         7.7745
         892      -390.4012      1431.9461      1431.9248         7.8029
         893      1127.0120      1440.4740      1440.4527         7.8309
         894      2461.4720      1449.0399      1449.0186         7.8584
         895     -1599.1140      1457.6457      1457.6244         7.8851
         896       198.9063      1466.3105      1466.2892         7.9112
         897     -1835.1910      1475.0120      1474.9907         7.9366
         898      1688.0000      1483.7856      1483.7642         7.9614
         899     -1676.8800      1492.5962      1492.5749         7.9854
         900       218.6243      1501.4434      1501.4220         8.0087
         901      1876.2780      1510.3656      1510.3442         8.0313
         902       895.1285      1519.3170      1519.2956         8.0530
         903       112.3903      1528.3363      1528.3150         8.0739
         904      -570.1577      1537.3822      1537.3609         8.0941
         905     -1052.6030      1546.4923      1546.4710         8.1134
         906      2642.8530      1555.6649      1555.6436         8.1319
         907      1481.1470      1564.8811      1564.8598         8.1495
         908      -846.8918      1574.1418      1574.1206         8.1664
         909      1017.6740      1583.4699      1583.4488         8.1823
         910     -1637.8090      1592.8281      1592.8070         8.1975
         911       556.8505      1602.2611      1602.2400         8.2117
         912      -725.9861      1611.7357      1611.7147         8.2251
         913        46.3110      1621.2768      1621.2559         8.2376
         914       575.5094      1630.8589      1630.8380         8.2494
         915     -2163.6240      1640.5039      1640.4831         8.2599
         916      1016.2350      1650.1915      1650.1708         8.2699
         917      1841.7840      1659.9546      1659.9340         8.2791
         918      -471.5012      1669.7564      1669.7358         8.2873
         919       662.5210      1679.6166      1679.5961         8.2946
         920       832.0063      1689.5305      1689.5101         8.3010
         921      1263.5840      1699.5153      1699.4950         8.3067
         922       -60.3300      1709.5431      1709.5229         8.3114
         923      2827.9580      1719.6486      1719.6285         8.3152
         924      2797.3830      1729.7922      1729.7722         8.3183
         925     -1332.3580      1740.0127      1739.9928         8.3206
         926        94.7781      1750.2698      1750.2500         8.3220
         927     -1184.4520      1760.6006      1760.5809         8.3226
         928       214.0263      1770.9882      1770.9686         8.3225
         929      -555.4361      1781.4406      1781.4212         8.3214
         930     -5538.3890      1791.9422      1791.9229         8.3197
         931      1161.2240      1802.5171      1802.4979         8.3174
         932     -3318.3850      1813.1557      1813.1367         8.3141
         933     -2297.2230      1823.8515      1823.8325         8.3102
         934      -484.5994      1834.6040      1834.5852         8.3055
         935      -628.8280      1845.4232      1845.4046         8.3001
         936     -1194.1860      1856.3208      1856.3023         8.2942
         937       740.9403      1867.2540      1867.2356         8.2873
         938      2600.7850      1878.2754      1878.2571         8.2799
         939     -1085.8500      1889.3530      1889.3349         8.2720
         940      1169.2160      1900.4899      1900.4720         8.2632
         941      2127.8200      1911.7230      1911.7052         8.2540
         942     -3480.8660      1923.0082      1922.9905         8.2442
         943     -5839.3790      1934.3538      1934.3363         8.2339
         944      1088.0070      1945.7767      1945.7593         8.2229
         945     -1125.1040      1957.2318      1957.2145         8.2114
         946      1332.3520      1968.8157      1968.7986         8.1995
         947     -1528.5580      1980.4223      1980.4054         8.1869
         948      2148.3760      1992.1133      1992.0965         8.1739
         949       960.1526      2003.8706      2003.8540         8.1607
         950      1860.5570      2015.7122      2015.6958         8.1470
         951      2748.5810      2027.6152      2027.5989         8.1328
         952       851.9210      2039.6091      2039.5930         8.1182
         953       224.2110      2051.6681      2051.6521         8.1034
         954     -1346.6560      2063.7808      2063.7649         8.0881
         955       413.8660      2075.9687      2075.9530         8.0726
         956      4244.5800      2088.2580      2088.2425         8.0566
         957      2434.6740      2100.5995      2100.5841         8.0406
         958      1101.4760      2113.0372      2113.0219         8.0243
         959      -311.4456      2125.5375      2125.5224         8.0078
         960      -758.7682      2138.1116      2138.0967         7.9911
         961     -1548.5500      2150.7776      2150.7628         7.9741
         962     -1565.6110      2163.5039      2163.4892         7.9570
         963      1648.9840      2176.3665      2176.3521         7.9400
         964      -671.7068      2189.2134      2189.1990         7.9227
         965     -4203.1280      2202.1873      2202.1731         7.9054
         966      1525.6810      2215.2991      2215.2850         7.8880
         967       543.9780      2228.3756      2228.3617         7.8707
         968       495.4890      2241.5752      2241.5615         7.8531
         969      1793.6130      2254.9392      2254.9256         7.8357
         970      -920.7207      2268.3252      2268.3117         7.8183
         971     -1061.3840      2281.7898      2281.7765         7.8008
         972       792.0281      2295.2853      2295.2721         7.7836
         973      -915.9753      2308.9191      2308.9060         7.7662
         974     -3245.0270      2322.7065      2322.6936         7.7492
         975     -2092.5420      2336.5387      2336.5259         7.7322
         976      -700.7241      2350.4208      2350.4081         7.7151
         977     -1947.6100      2364.3481      2364.3356         7.6984
         978     -2458.2150      2378.4377      2378.4253         7.6816
         979      2211.2800      2392.6396      2392.6273         7.6652
         980      3290.7250      2406.9203      2406.9081         7.6490
         981      4075.2990      2421.2343      2421.2223         7.6327
         982       334.6006      2435.6335      2435.6215         7.6169
         983      -791.7580      2450.1497      2450.1379         7.6012
         984      2727.3310      2464.8121      2464.8004         7.5859
         985      4647.6380      2479.5406      2479.5291         7.5707
         986     -2183.6620      2494.3089      2494.2974         7.5555
         987     -1839.4360      2509.2358      2509.2245         7.5408
         988      4254.7260      2524.1982      2524.1869         7.5263
         989     -4426.9690      2539.3216      2539.3105         7.5121
         990       828.2386      2554.5106      2554.4996         7.4981
         991       -12.6531      2569.8430      2569.8321         7.4844
         992      -149.7700      2585.2048      2585.1940         7.4710
         993       193.7026      2600.6405      2600.6299         7.4578
         994      1214.5740      2616.2307      2616.2201         7.4449
         995       565.9221      2631.9662      2631.9557         7.4325
         996      -336.9529      2647.7589      2647.7485         7.4201
         997       -25.7442      2663.6196      2663.6093         7.4081
         998       925.6260      2679.6132      2679.6030         7.3962
         999      1161.1630      2695.7746      2695.7645         7.3847
        1000     -1674.9700      2711.9821      2711.9721         7.3734
